E(eV)	f1	f2
10.0000	-9999.	2.59886
10.1152	-9999.	2.63957
10.2317	-9999.	2.68119
10.3496	-9999.	2.72415
10.4688	-9999.	2.76780
10.5894	-9999.	2.81214
10.7114	-9999.	2.85720
10.8348	-9999.	2.90298
10.9596	-9999.	2.94949
11.0859	-9999.	2.99675
11.2136	-9999.	3.04476
11.3428	-9999.	3.09354
11.4734	-9999.	3.14311
11.6056	-9999.	3.19347
11.7393	-9999.	3.24463
11.8745	-9999.	3.29662
12.0113	-9999.	3.34944
12.1497	-9999.	3.40310
12.2897	-9999.	3.45763
12.4312	-9999.	3.51302
12.5744	-9999.	3.56931
12.7193	-9999.	3.62650
12.8658	-9999.	3.68460
13.0140	-9999.	3.74364
13.1640	-9999.	3.80043
13.3156	-9999.	3.85797
13.4690	-9999.	3.91639
13.6242	-9999.	3.97569
13.7811	-9999.	4.03570
13.9399	-9999.	4.06196
14.1005	-9999.	4.07958
14.2629	-9999.	3.94937
14.4272	-9999.	3.82332
14.5934	-9999.	3.48844
14.7615	-9999.	3.14840
14.9316	-9999.	2.84152
15.1036	-9999.	2.56453
15.2776	-9999.	2.31455
15.4536	-9999.	2.08894
15.6316	-9999.	1.88532
15.8117	-9999.	1.68950
15.9938	-9999.	1.50568
16.1781	-9999.	1.34186
16.3644	-9999.	1.29132
16.5529	-9999.	1.27552
16.7436	-9999.	1.25992
16.9365	-9999.	1.24450
17.1316	-9999.	1.22928
17.3290	-9999.	1.21424
17.5286	-9999.	1.19938
17.7305	-9999.	1.18471
17.9348	-9999.	1.17022
18.1414	-9999.	1.15590
18.3504	-9999.	1.14176
18.5618	-9999.	1.12779
18.7756	-9999.	1.12334
18.9919	-9999.	1.13672
19.2107	1.43277	1.15027
19.4320	1.13211	1.16398
19.6558	0.698747	1.17785
19.8823	0.194414	1.36993
20.1113	-0.298941	1.70882
20.3430	-0.740252	2.23387
20.5773	-0.809073	2.96323
20.8144	-0.721060	3.31242
21.0542	-0.776530	3.70275
21.2967	-0.740473	4.10925
21.5421	-0.675681	4.39405
21.7902	-0.644206	4.69858
22.0412	-0.574942	5.02421
22.2952	-0.425837	5.34323
22.5520	-0.268313	5.48238
22.8118	-0.192988	5.62516
23.0746	-0.145541	5.77166
23.3404	-0.114818	5.92197
23.6093	-0.956905E-01	6.07620
23.8812	-0.848224E-01	6.23444
24.1564	-0.769488E-01	6.39681
24.4346	-0.694149E-01	6.55797
24.7161	-0.731684E-01	6.70066
25.0008	-0.983987E-01	6.84647
25.2889	-0.140872	6.99544
25.5802	-0.202277	7.14767
25.8749	-0.287074	7.30320
26.1729	-0.403155	7.46211
26.4744	-0.564845	7.62679
26.7794	-0.789996	7.79875
27.0275	-1.14823	7.94001
27.3008	-1.63032	8.39773
27.6153	-1.96589	9.22140
27.9334	-2.05888	10.1259
28.2552	-1.89371	11.0010
28.5807	-1.64471	11.7319
28.9100	-1.34246	12.5113
29.2430	-0.872725	13.2364
29.5799	-0.392051	13.7334
29.9206	0.346690E-01	14.2490
30.2653	0.476598	14.7567
30.6140	0.934560	15.2676
30.9666	1.42155	15.7962
31.3234	1.96221	16.3432
31.6842	2.57706	16.9091
32.0492	3.30443	17.4945
32.4184	4.23079	18.0225
32.7919	5.22926	18.3692
33.1696	6.38397	18.6842
33.5518	7.55615	18.6228
33.9383	8.74608	18.5616
34.3292	9.89314	18.0514
34.7247	10.6965	17.5050
35.1247	11.3890	16.9753
35.5294	12.0250	16.4615
35.9386	12.5982	15.9068
36.3527	13.0798	15.3501
36.7714	13.5023	14.8128
37.1950	13.9694	14.2943
37.6235	14.3849	13.6087
38.0569	14.6025	12.9040
38.4953	14.6750	12.2357
38.9388	14.6851	11.7487
39.3874	14.7228	11.2932
39.8411	14.7534	10.8553
40.3001	14.7652	10.4343
40.7643	14.7459	10.0324
41.2339	14.7125	9.67281
41.7090	14.6818	9.32612
42.1894	14.6386	8.99187
42.6755	14.5837	8.66960
43.1671	14.5145	8.35624
43.6644	14.4276	8.05409
44.1674	14.3225	7.76285
44.6762	14.1956	7.48215
45.1908	14.0451	7.21161
45.7114	13.7958	6.95084
46.2380	13.5269	6.85319
46.7707	13.3609	6.80425
47.3095	13.2326	6.75565
47.8545	13.1284	6.70740
48.4058	13.0433	6.65950
48.9634	12.9699	6.60348
49.5274	12.9005	6.54716
50.0980	12.8350	6.49132
50.6751	12.7724	6.43596
51.2589	12.7109	6.38107
51.8494	12.6461	6.32665
52.4467	12.5778	6.28605
53.0509	12.5184	6.25594
53.6620	12.4697	6.22597
54.2802	12.4252	6.19615
54.9055	12.3845	6.16647
55.5380	12.3470	6.13693
56.1778	12.3133	6.10754
56.8250	12.2850	6.07690
57.4796	12.2562	6.03398
58.1417	12.2205	5.99136
58.8115	12.1812	5.94905
59.4890	12.1383	5.90704
60.1743	12.0890	5.86532
60.8675	12.0350	5.82928
61.5687	11.9808	5.79689
62.2780	11.9242	5.76466
62.9954	11.8628	5.73263
63.7211	11.7949	5.70077
64.4552	11.7001	5.66908
65.1977	11.5946	5.67720
65.9488	11.5139	5.70848
66.7085	11.4472	5.73992
67.4770	11.3880	5.77155
68.2543	11.3337	5.80334
69.0406	11.2830	5.83532
69.8359	11.2347	5.86746
70.6404	11.1878	5.89979
71.4542	11.1413	5.93229
72.2774	11.0905	5.96497
73.1100	11.0353	6.00439
73.9522	10.9852	6.06099
74.8041	10.9457	6.11814
75.6659	10.9119	6.17581
76.5375	10.8826	6.23404
77.4192	10.8576	6.29280
78.3111	10.8367	6.35213
79.2132	10.8203	6.41201
80.1258	10.8089	6.47246
81.0488	10.8117	6.53348
81.9825	10.8210	6.57612
82.9269	10.8197	6.60881
83.8822	10.8133	6.64166
84.8485	10.8043	6.67467
85.8260	10.7939	6.70785
86.8147	10.7830	6.74119
87.8148	10.7723	6.77470
88.8264	10.7658	6.80837
89.8497	10.7655	6.83765
90.8847	10.7613	6.84384
91.9317	10.7428	6.85005
92.9908	10.7166	6.85625
94.0620	10.6841	6.86247
95.1456	10.6457	6.86869
96.2417	10.6016	6.87491
97.3503	10.5515	6.88114
98.4718	10.4954	6.88738
99.6062	10.4328	6.89362
100.754	10.3630	6.89987
101.914	10.2833	6.90782
103.088	10.1980	6.92311
104.276	10.1115	6.93843
105.477	10.0199	6.95380
106.692	9.92356	6.96918
107.921	9.82429	6.98461
109.165	9.72752	6.99174
110.422	9.61711	6.97723
111.694	9.48075	6.96276
112.981	9.32959	6.94831
114.282	9.17472	6.93389
115.599	9.00570	6.89460
116.931	8.79749	6.83946
118.278	8.55563	6.78475
119.640	8.28575	6.73049
121.019	8.00556	6.67665
122.413	7.68519	6.53341
123.823	7.25812	6.38700
125.249	6.75238	6.24387
126.692	6.16377	6.09458
128.152	5.46190	5.91569
129.628	4.61550	5.74204
131.121	3.64436	5.56359
132.632	2.42853	5.26234
134.160	0.760407	4.97742
135.705	-1.40968	4.77885
136.868	-3.59184	4.75615
138.069	-6.65208	5.16043
139.660	-10.3683	7.19859
139.970	-11.2473	7.67845
141.416	-14.6480	9.69578
143.045	-20.6122	12.2147
143.250	-21.8300	12.5724
144.354	-29.9321	18.3049
145.098	-35.9848	23.6190
145.846	-37.7647	37.7319
147.354	-28.4364	63.3645
149.052	1.46880	78.9176
150.769	25.0495	63.8690
152.505	32.8601	48.6843
154.262	33.3062	38.7647
156.039	31.2810	31.8826
157.837	29.5943	29.1981
159.655	28.6664	26.7397
161.494	27.8613	25.2119
163.355	27.3842	23.9251
165.237	26.9914	22.8194
167.140	26.6991	21.9706
169.066	26.5539	21.1534
171.013	26.4135	20.3837
172.983	26.2755	19.6637
174.976	26.1166	18.9692
176.992	25.8624	18.2992
179.031	25.4591	17.7315
181.093	25.1164	17.5601
183.179	24.9629	17.3903
185.289	24.8833	17.2222
187.424	24.8497	17.0557
189.583	24.8486	16.8908
191.767	24.8721	16.7275
193.976	24.9155	16.5658
196.211	24.9766	16.4057
198.471	25.0567	16.2471
200.757	25.1721	16.0900
203.070	25.2981	15.8622
205.410	25.3890	15.6230
207.776	25.4564	15.3875
210.169	25.5108	15.1554
212.591	25.5532	14.9269
215.040	25.5835	14.7018
217.517	25.6007	14.4801
220.023	25.6034	14.2618
222.557	25.5659	14.0507
225.121	25.5240	13.9016
227.714	25.5138	13.7540
230.338	25.5035	13.6080
232.991	25.4922	13.4635
235.675	25.4778	13.3205
238.390	25.4580	13.1791
241.136	25.4310	13.0392
243.914	25.3943	12.9007
246.724	25.3447	12.7638
249.566	25.2769	12.6282
252.441	25.1857	12.4941
255.349	24.9885	12.3693
258.291	24.7932	12.4343
261.266	24.7195	12.4996
264.276	24.6688	12.5653
267.321	24.6411	12.6313
270.400	24.6319	12.6977
273.515	24.6385	12.7644
276.666	24.6593	12.8315
279.853	24.6936	12.8990
283.077	24.7414	12.9667
286.338	24.8037	13.0349
289.637	24.8811	13.1034
292.973	25.0043	13.1723
296.348	25.1440	13.1793
299.762	25.2482	13.1607
303.215	25.3372	13.1421
306.708	25.4172	13.1235
310.242	25.4901	13.1049
313.816	25.5559	13.0864
317.431	25.6126	13.0679
321.088	25.6438	13.0575
324.786	25.6790	13.0933
328.528	25.7470	13.1292
332.313	25.8245	13.1652
336.141	25.9207	13.2014
340.013	26.0301	13.2208
343.930	26.1332	13.2191
347.892	26.2279	13.2174
351.900	26.3199	13.2157
355.954	26.4106	13.2139
360.054	26.5008	13.2122
364.202	26.5908	13.2105
368.398	26.6809	13.2088
372.642	26.7714	13.2071
376.934	26.8626	13.2054
381.277	26.9547	13.2036
385.669	27.0482	13.2019
390.112	27.1439	13.2002
394.606	27.2472	13.1967
399.152	27.3499	13.1791
403.750	27.4431	13.1615
408.401	27.5343	13.1440
413.106	27.6234	13.1265
417.865	27.7107	13.1090
422.678	27.7963	13.0915
427.548	27.8802	13.0740
432.473	27.9621	13.0566
437.455	28.0416	13.0392
442.494	28.1175	13.0218
447.592	28.1855	13.0045
452.748	28.2464	13.0048
457.964	28.3169	13.0173
463.239	28.3996	13.0299
468.576	28.4876	13.0425
473.974	28.5812	13.0552
479.434	28.6807	13.0678
484.957	28.7875	13.0804
490.544	28.9052	13.0931
496.195	29.0478	13.0943
501.911	29.1871	13.0528
507.693	29.2983	13.0114
513.541	29.4042	12.9701
519.457	29.5051	12.9290
525.441	29.6023	12.8880
531.495	29.6967	12.8471
537.617	29.7889	12.8064
543.811	29.8795	12.7658
550.075	29.9692	12.7253
556.412	30.0587	12.6849
562.822	30.1488	12.6447
569.305	30.2509	12.6046
575.864	30.3530	12.5398
582.498	30.4363	12.4734
589.208	30.5143	12.4063
595.996	30.5866	12.3394
602.861	30.6546	12.2729
609.806	30.7191	12.2068
616.831	30.7805	12.1410
623.937	30.8417	12.0756
631.125	30.9015	12.0062
638.395	30.9601	11.9340
645.750	31.0154	11.8534
653.188	31.0588	11.7649
660.713	31.0908	11.6771
668.324	31.1105	11.5901
676.023	31.1186	11.5097
683.811	31.1250	11.4465
691.689	31.1362	11.3841
699.657	31.1504	11.3236
707.717	31.1698	11.2613
715.870	31.1860	11.1789
724.116	31.1883	11.0971
732.458	31.1827	11.0160
740.896	31.1705	10.9354
749.431	31.1520	10.8554
758.064	31.1277	10.7760
766.797	31.0979	10.6960
775.631	31.0629	10.6163
784.566	31.0224	10.5318
793.604	30.9714	10.4448
802.746	30.9097	10.3586
811.994	30.8388	10.2731
821.348	30.7587	10.1882
830.810	30.6692	10.1040
840.381	30.5702	10.0202
850.062	30.4609	9.93610
859.854	30.3409	9.85223
869.760	30.2087	9.76689
879.779	30.0622	9.68229
889.914	29.9019	9.59833
900.166	29.7269	9.51510
910.536	29.5361	9.43260
921.025	29.3301	9.35082
931.635	29.1057	9.26598
942.368	28.8587	9.18104
953.224	28.5883	9.09519
964.205	28.2907	9.00961
975.312	27.9640	8.92500
986.548	27.6055	8.84126
997.913	27.2113	8.75767
1009.41	26.7767	8.67430
1021.04	26.2954	8.58957
1032.80	25.7576	8.50287
1044.70	25.1537	8.41650
1056.73	24.4712	8.32978
1068.91	23.6937	8.24394
1081.22	22.7998	8.15899
1093.67	21.7590	8.07491
1106.27	20.5269	7.99170
1119.02	19.0354	7.90935
1131.91	17.1732	7.82795
1144.95	14.7387	7.74740
1158.14	11.3077	7.66759
1171.48	5.70917	7.58858
1184.97	-8.77740	7.51040
1189.50	-50.9975	7.48456
1189.70	-50.9725	42.3407
1198.63	-0.450354	41.9093
1212.43	10.4118	41.2569
1226.40	16.1355	40.6146
1240.53	20.0834	39.9834
1254.82	23.1063	39.3628
1269.28	25.5541	38.7540
1283.90	27.6077	38.1574
1298.69	29.3710	37.5700
1313.65	30.9087	36.9916
1328.78	32.2646	36.4221
1344.09	33.4695	35.8612
1359.57	34.5452	35.3090
1375.23	35.5079	34.7652
1391.08	36.3688	34.2299
1407.10	37.1357	33.7027
1423.31	37.8130	33.1837
1439.71	38.4014	32.6728
1456.29	38.8975	32.1698
1473.07	39.2885	31.6708
1490.04	39.5451	31.1785
1507.20	39.6007	30.6855
1524.57	39.2379	30.1959
1542.13	36.3538	29.7142
1543.90	32.1401	29.6664
1544.10	32.1461	34.2371
1559.90	39.9565	33.7980
1577.87	41.4832	33.3106
1596.04	42.4738	32.8302
1614.43	43.2085	32.3567
1633.03	43.6373	31.8899
1651.84	43.7954	31.6343
1670.87	44.1335	32.1893
1688.20	45.1946	32.6976
1688.40	45.2256	32.6806
1690.12	45.3822	32.6354
1709.59	46.4974	32.1301
1729.28	47.2961	31.6326
1749.20	47.9640	31.1428
1769.35	48.5443	30.6605
1789.74	49.0534	30.1854
1810.35	49.4953	29.7175
1831.21	49.8629	29.2571
1852.30	50.1193	28.8038
1873.64	50.0302	28.3576
1880.70	48.5244	28.2127
1880.90	48.5388	29.4562
1895.23	50.7344	29.1548
1917.06	51.5004	28.7056
1939.14	52.0650	28.2633
1961.48	52.5479	27.8278
1984.08	52.9796	27.3990
2006.93	53.3748	26.9791
2030.05	53.7472	26.5694
2053.44	54.0985	26.1574
2077.10	54.4247	25.7498
2101.02	54.7313	25.3482
2125.23	55.0208	24.9520
2149.71	55.2943	24.5611
2174.47	55.5530	24.1755
2199.52	55.7981	23.7954
2224.86	56.0307	23.4206
2250.49	56.2513	23.0509
2276.42	56.4606	22.6863
2302.64	56.6594	22.3273
2329.17	56.8479	21.9726
2356.	57.0266	21.6243
2383.14	57.1976	21.2808
2410.59	57.3600	20.9413
2438.36	57.5132	20.6069
2466.45	57.6591	20.2783
2494.87	57.7976	19.9527
2523.61	57.9285	19.6337
2552.68	58.0534	19.3182
2582.09	58.1712	19.0079
2611.83	58.2829	18.7016
2641.92	58.3880	18.4002
2672.35	58.4877	18.1040
2703.14	58.5824	17.8122
2734.28	58.6721	17.5239
2765.78	58.7560	17.2396
2797.64	58.8348	16.9603
2829.87	58.9091	16.6849
2862.47	58.9784	16.4138
2895.44	59.0434	16.1472
2928.80	59.1047	15.8847
2962.54	59.1620	15.6258
2996.67	59.2150	15.3707
3031.19	59.2641	15.1197
3066.11	59.3097	14.8727
3101.43	59.3518	14.6292
3137.16	59.3905	14.3896
3173.30	59.4258	14.1531
3209.85	59.4571	13.9208
3246.83	59.4858	13.6928
3284.23	59.5121	13.4676
3322.07	59.5351	13.2455
3360.34	59.5551	13.0276
3399.05	59.5726	12.8121
3438.20	59.5867	12.6007
3477.81	59.5987	12.3925
3517.88	59.6080	12.1875
3558.40	59.6149	11.9858
3599.39	59.6194	11.7871
3640.86	59.6214	11.5915
3682.80	59.6212	11.3991
3725.23	59.6187	11.2095
3768.14	59.6139	11.0230
3811.55	59.6069	10.8394
3855.46	59.5978	10.6587
3899.87	59.5865	10.4809
3944.80	59.5733	10.3059
3990.24	59.5580	10.1335
4036.21	59.5406	9.96389
4082.71	59.5212	9.79686
4129.74	59.4998	9.63262
4177.31	59.4765	9.47075
4225.44	59.4509	9.31151
4274.11	59.4235	9.15483
4323.35	59.3940	9.00065
4373.15	59.3626	8.84892
4423.53	59.3292	8.69945
4474.49	59.2937	8.55241
4526.04	59.2561	8.40757
4578.18	59.2164	8.26512
4630.92	59.1746	8.12490
4684.27	59.1306	7.98688
4738.23	59.0844	7.85103
4792.81	59.0358	7.71730
4848.02	58.9849	7.58567
4903.87	58.9314	7.45615
4960.37	58.8755	7.32867
5017.51	58.8170	7.20307
5075.31	58.7556	7.07959
5133.78	58.6914	6.95792
5192.92	58.6239	6.83819
5252.74	58.5533	6.72043
5313.25	58.4793	6.60458
5374.46	58.4017	6.49051
5436.37	58.3203	6.37820
5499.	58.2347	6.26743
5562.35	58.1446	6.15876
5626.42	58.0498	6.05141
5691.24	57.9495	5.94592
5756.80	57.8435	5.84208
5823.12	57.7312	5.73985
5890.20	57.6121	5.63937
5958.06	57.4852	5.54018
6026.69	57.3497	5.44276
6096.12	57.2046	5.34683
6166.35	57.0486	5.25238
6237.38	56.8800	5.15936
6309.24	56.6969	5.06779
6381.92	56.4970	4.97767
6455.44	56.2770	4.88892
6529.80	56.0327	4.80152
6605.03	55.7588	4.71553
6681.11	55.4474	4.63083
6758.08	55.0874	4.54734
6835.93	54.6613	4.46527
6914.68	54.1406	4.38450
6994.34	53.4717	4.30490
7074.91	52.5360	4.22660
7156.42	50.9632	4.14961
7238.86	43.6743	4.07360
7242.70	34.9466	4.07010
7242.90	34.9476	11.5429
7322.25	50.8662	11.3109
7406.60	52.5199	11.0720
7491.92	53.3810	10.8383
7578.23	53.8784	10.6094
7665.53	54.1197	10.3852
7753.84	54.0994	10.1658
7843.16	53.6515	9.95124
7930.20	45.8175	9.74873
7930.40	45.8203	13.6269
7933.51	49.9824	13.6165
8024.91	54.3808	13.3181
8117.35	55.3822	13.0263
8210.86	55.9123	12.7406
8305.45	56.0290	12.4611
8375.50	52.6588	12.2600
8375.70	52.6596	14.0469
8401.13	55.9311	13.9843
8497.91	57.2413	13.7503
8595.80	57.9509	13.5196
8694.83	58.4996	13.2917
8794.99	58.9605	13.0668
8896.31	59.3624	12.8446
8998.79	59.7199	12.6248
9102.46	60.0421	12.4079
9207.32	60.3352	12.1939
9313.38	60.6037	11.9828
9420.67	60.8508	11.7747
9529.20	61.0795	11.5694
9638.97	61.2916	11.3668
9750.01	61.4887	11.1670
9862.33	61.6725	10.9702
9975.95	61.8440	10.7757
10090.9	62.0043	10.5843
10207.1	62.1543	10.3957
10324.7	62.2948	10.2098
10443.6	62.4265	10.0266
10563.9	62.5499	9.84621
10685.6	62.6658	9.66852
10808.7	62.7745	9.49353
10933.3	62.8766	9.32121
11059.2	62.9723	9.15156
11186.6	63.0622	8.98454
11315.5	63.1465	8.82015
11445.8	63.2256	8.65834
11577.7	63.2998	8.49911
11711.1	63.3693	8.34243
11846.0	63.4343	8.18827
11982.4	63.4952	8.03660
12120.5	63.5522	7.88742
12260.1	63.6053	7.74067
12401.3	63.6549	7.59635
12544.2	63.7011	7.45443
12688.7	63.7441	7.31487
12834.9	63.7840	7.17765
12982.7	63.8210	7.04274
13132.3	63.8552	6.91012
13283.6	63.8868	6.77976
13436.6	63.9159	6.65162
13591.4	63.9426	6.52569
13748.0	63.9669	6.40193
13906.3	63.9892	6.28031
14066.5	64.0093	6.16080
14228.6	64.0275	6.04339
14392.5	64.0437	5.92803
14558.3	64.0582	5.81471
14726.0	64.0710	5.70339
14895.6	64.0821	5.59404
15067.2	64.0917	5.48664
15240.8	64.0998	5.38115
15416.4	64.1065	5.27756
15594.0	64.1118	5.17582
15773.6	64.1158	5.07593
15955.3	64.1186	4.97784
16139.1	64.1203	4.88153
16325.1	64.1208	4.78697
16513.1	64.1202	4.69414
16703.4	64.1187	4.60300
16895.8	64.1161	4.51354
17090.4	64.1127	4.42573
17287.3	64.1083	4.33953
17486.4	64.1032	4.25493
17687.9	64.0972	4.17190
17891.7	64.0905	4.09041
18097.8	64.0830	4.01044
18306.2	64.0749	3.93196
18517.1	64.0661	3.85495
18730.4	64.0567	3.77938
18946.2	64.0467	3.70524
19164.5	64.0362	3.63249
19385.3	64.0251	3.56111
19608.6	64.0135	3.49108
19834.5	64.0014	3.42238
20062.9	63.9888	3.35498
20294.1	63.9758	3.28886
20527.9	63.9624	3.22400
20764.3	63.9486	3.16038
21003.5	63.9345	3.09798
21245.5	63.9199	3.03677
21490.2	63.9051	2.97673
21737.8	63.8899	2.91785
21988.2	63.8744	2.86009
22241.5	63.8586	2.80345
22497.8	63.8425	2.74790
22756.9	63.8262	2.69343
23019.1	63.8096	2.64000
23284.3	63.7927	2.58762
23552.5	63.7757	2.53624
23823.8	63.7584	2.48587
24098.3	63.7409	2.43647
24375.9	63.7232	2.38804
24656.7	63.7053	2.34055
24940.7	63.6872	2.29398
25228.0	63.6689	2.24833
25518.7	63.6504	2.20356
25812.6	63.6318	2.15967
26110.0	63.6130	2.11665
26410.8	63.5940	2.07446
26715.0	63.5749	2.03310
27022.8	63.5556	1.99256
27334.1	63.5361	1.95281
27649.0	63.5165	1.91384
27967.5	63.4966	1.87565
28289.7	63.4767	1.83820
28615.6	63.4565	1.80149
28945.2	63.4362	1.76551
29278.7	63.4157	1.73024
29615.9	63.3950	1.69566
29957.1	63.3743	1.66177
30000.0	63.3721	1.65758
